"function evaluation" "current f(x)" "best-so-far f(x)" "current af(x)+b" "best af(x)+b"
1 -1410.0000000000 -1410.0000000000 -1410.0000000000 -1410.0000000000
3 -1381.0000000000 -1381.0000000000 -1381.0000000000 -1381.0000000000
5 -1342.0000000000 -1342.0000000000 -1342.0000000000 -1342.0000000000
6 -1303.0000000000 -1303.0000000000 -1303.0000000000 -1303.0000000000
14 -1264.0000000000 -1264.0000000000 -1264.0000000000 -1264.0000000000
16 -1225.0000000000 -1225.0000000000 -1225.0000000000 -1225.0000000000
18 -1186.0000000000 -1186.0000000000 -1186.0000000000 -1186.0000000000
22 -1147.0000000000 -1147.0000000000 -1147.0000000000 -1147.0000000000
25 -1108.0000000000 -1108.0000000000 -1108.0000000000 -1108.0000000000
27 -1079.0000000000 -1079.0000000000 -1079.0000000000 -1079.0000000000
28 -1040.0000000000 -1040.0000000000 -1040.0000000000 -1040.0000000000
29 -1001.0000000000 -1001.0000000000 -1001.0000000000 -1001.0000000000
30 -962.0000000000 -962.0000000000 -962.0000000000 -962.0000000000
33 -923.0000000000 -923.0000000000 -923.0000000000 -923.0000000000
40 -884.0000000000 -884.0000000000 -884.0000000000 -884.0000000000
45 -845.0000000000 -845.0000000000 -845.0000000000 -845.0000000000
48 -806.0000000000 -806.0000000000 -806.0000000000 -806.0000000000
49 -777.0000000000 -777.0000000000 -777.0000000000 -777.0000000000
54 -738.0000000000 -738.0000000000 -738.0000000000 -738.0000000000
56 -699.0000000000 -699.0000000000 -699.0000000000 -699.0000000000
64 -660.0000000000 -660.0000000000 -660.0000000000 -660.0000000000
70 -631.0000000000 -631.0000000000 -631.0000000000 -631.0000000000
75 -602.0000000000 -602.0000000000 -602.0000000000 -602.0000000000
84 -573.0000000000 -573.0000000000 -573.0000000000 -573.0000000000
90 -534.0000000000 -534.0000000000 -534.0000000000 -534.0000000000
98 -505.0000000000 -505.0000000000 -505.0000000000 -505.0000000000
102 -466.0000000000 -466.0000000000 -466.0000000000 -466.0000000000
105 -437.0000000000 -437.0000000000 -437.0000000000 -437.0000000000
110 -408.0000000000 -408.0000000000 -408.0000000000 -408.0000000000
111 -389.0000000000 -389.0000000000 -389.0000000000 -389.0000000000
129 -360.0000000000 -360.0000000000 -360.0000000000 -360.0000000000
132 -321.0000000000 -321.0000000000 -321.0000000000 -321.0000000000
133 -292.0000000000 -292.0000000000 -292.0000000000 -292.0000000000
134 -253.0000000000 -253.0000000000 -253.0000000000 -253.0000000000
137 -224.0000000000 -224.0000000000 -224.0000000000 -224.0000000000
139 -215.0000000000 -215.0000000000 -215.0000000000 -215.0000000000
140 -186.0000000000 -186.0000000000 -186.0000000000 -186.0000000000
144 -157.0000000000 -157.0000000000 -157.0000000000 -157.0000000000
163 -138.0000000000 -138.0000000000 -138.0000000000 -138.0000000000
164 -109.0000000000 -109.0000000000 -109.0000000000 -109.0000000000
169 -90.0000000000 -90.0000000000 -90.0000000000 -90.0000000000
171 -51.0000000000 -51.0000000000 -51.0000000000 -51.0000000000
175 -42.0000000000 -42.0000000000 -42.0000000000 -42.0000000000
185 -33.0000000000 -33.0000000000 -33.0000000000 -33.0000000000
216 -32.0000000000 -32.0000000000 -32.0000000000 -32.0000000000
230 -23.0000000000 -23.0000000000 -23.0000000000 -23.0000000000
238 -14.0000000000 -14.0000000000 -14.0000000000 -14.0000000000
245 -5.0000000000 -5.0000000000 -5.0000000000 -5.0000000000
246 -4.0000000000 -4.0000000000 -4.0000000000 -4.0000000000
257 -3.0000000000 -3.0000000000 -3.0000000000 -3.0000000000
288 -2.0000000000 -2.0000000000 -2.0000000000 -2.0000000000
296 7.0000000000 7.0000000000 7.0000000000 7.0000000000
319 8.0000000000 8.0000000000 8.0000000000 8.0000000000
569 9.0000000000 9.0000000000 9.0000000000 9.0000000000
100001 -10.0000000000 9.0000000000 -10.0000000000 9.0000000000
"function evaluation" "current f(x)" "best-so-far f(x)" "current af(x)+b" "best af(x)+b"
1 -1653.0000000000 -1653.0000000000 -1653.0000000000 -1653.0000000000
3 -1614.0000000000 -1614.0000000000 -1614.0000000000 -1614.0000000000
5 -1575.0000000000 -1575.0000000000 -1575.0000000000 -1575.0000000000
7 -1536.0000000000 -1536.0000000000 -1536.0000000000 -1536.0000000000
9 -1497.0000000000 -1497.0000000000 -1497.0000000000 -1497.0000000000
10 -1458.0000000000 -1458.0000000000 -1458.0000000000 -1458.0000000000
12 -1429.0000000000 -1429.0000000000 -1429.0000000000 -1429.0000000000
16 -1390.0000000000 -1390.0000000000 -1390.0000000000 -1390.0000000000
21 -1351.0000000000 -1351.0000000000 -1351.0000000000 -1351.0000000000
23 -1312.0000000000 -1312.0000000000 -1312.0000000000 -1312.0000000000
24 -1273.0000000000 -1273.0000000000 -1273.0000000000 -1273.0000000000
26 -1234.0000000000 -1234.0000000000 -1234.0000000000 -1234.0000000000
29 -1195.0000000000 -1195.0000000000 -1195.0000000000 -1195.0000000000
30 -1156.0000000000 -1156.0000000000 -1156.0000000000 -1156.0000000000
32 -1117.0000000000 -1117.0000000000 -1117.0000000000 -1117.0000000000
35 -1078.0000000000 -1078.0000000000 -1078.0000000000 -1078.0000000000
37 -1039.0000000000 -1039.0000000000 -1039.0000000000 -1039.0000000000
44 -1010.0000000000 -1010.0000000000 -1010.0000000000 -1010.0000000000
45 -971.0000000000 -971.0000000000 -971.0000000000 -971.0000000000
46 -932.0000000000 -932.0000000000 -932.0000000000 -932.0000000000
51 -893.0000000000 -893.0000000000 -893.0000000000 -893.0000000000
54 -854.0000000000 -854.0000000000 -854.0000000000 -854.0000000000
55 -825.0000000000 -825.0000000000 -825.0000000000 -825.0000000000
57 -796.0000000000 -796.0000000000 -796.0000000000 -796.0000000000
60 -757.0000000000 -757.0000000000 -757.0000000000 -757.0000000000
63 -728.0000000000 -728.0000000000 -728.0000000000 -728.0000000000
64 -689.0000000000 -689.0000000000 -689.0000000000 -689.0000000000
66 -650.0000000000 -650.0000000000 -650.0000000000 -650.0000000000
68 -611.0000000000 -611.0000000000 -611.0000000000 -611.0000000000
69 -572.0000000000 -572.0000000000 -572.0000000000 -572.0000000000
70 -533.0000000000 -533.0000000000 -533.0000000000 -533.0000000000
71 -494.0000000000 -494.0000000000 -494.0000000000 -494.0000000000
73 -465.0000000000 -465.0000000000 -465.0000000000 -465.0000000000
77 -446.0000000000 -446.0000000000 -446.0000000000 -446.0000000000
82 -427.0000000000 -427.0000000000 -427.0000000000 -427.0000000000
89 -408.0000000000 -408.0000000000 -408.0000000000 -408.0000000000
90 -379.0000000000 -379.0000000000 -379.0000000000 -379.0000000000
91 -360.0000000000 -360.0000000000 -360.0000000000 -360.0000000000
97 -331.0000000000 -331.0000000000 -331.0000000000 -331.0000000000
101 -302.0000000000 -302.0000000000 -302.0000000000 -302.0000000000
147 -273.0000000000 -273.0000000000 -273.0000000000 -273.0000000000
150 -254.0000000000 -254.0000000000 -254.0000000000 -254.0000000000
154 -225.0000000000 -225.0000000000 -225.0000000000 -225.0000000000
159 -206.0000000000 -206.0000000000 -206.0000000000 -206.0000000000
162 -177.0000000000 -177.0000000000 -177.0000000000 -177.0000000000
165 -168.0000000000 -168.0000000000 -168.0000000000 -168.0000000000
169 -139.0000000000 -139.0000000000 -139.0000000000 -139.0000000000
183 -110.0000000000 -110.0000000000 -110.0000000000 -110.0000000000
186 -109.0000000000 -109.0000000000 -109.0000000000 -109.0000000000
187 -80.0000000000 -80.0000000000 -80.0000000000 -80.0000000000
191 -71.0000000000 -71.0000000000 -71.0000000000 -71.0000000000
192 -52.0000000000 -52.0000000000 -52.0000000000 -52.0000000000
193 -33.0000000000 -33.0000000000 -33.0000000000 -33.0000000000
204 -24.0000000000 -24.0000000000 -24.0000000000 -24.0000000000
210 -23.0000000000 -23.0000000000 -23.0000000000 -23.0000000000
213 -22.0000000000 -22.0000000000 -22.0000000000 -22.0000000000
215 -13.0000000000 -13.0000000000 -13.0000000000 -13.0000000000
263 6.0000000000 6.0000000000 6.0000000000 6.0000000000
270 7.0000000000 7.0000000000 7.0000000000 7.0000000000
285 8.0000000000 8.0000000000 8.0000000000 8.0000000000
100001 -11.0000000000 8.0000000000 -11.0000000000 8.0000000000
"function evaluation" "current f(x)" "best-so-far f(x)" "current af(x)+b" "best af(x)+b"
1 -1303.0000000000 -1303.0000000000 -1303.0000000000 -1303.0000000000
2 -1264.0000000000 -1264.0000000000 -1264.0000000000 -1264.0000000000
7 -1225.0000000000 -1225.0000000000 -1225.0000000000 -1225.0000000000
8 -1186.0000000000 -1186.0000000000 -1186.0000000000 -1186.0000000000
10 -1147.0000000000 -1147.0000000000 -1147.0000000000 -1147.0000000000
14 -1118.0000000000 -1118.0000000000 -1118.0000000000 -1118.0000000000
16 -1079.0000000000 -1079.0000000000 -1079.0000000000 -1079.0000000000
18 -1040.0000000000 -1040.0000000000 -1040.0000000000 -1040.0000000000
20 -1011.0000000000 -1011.0000000000 -1011.0000000000 -1011.0000000000
22 -972.0000000000 -972.0000000000 -972.0000000000 -972.0000000000
24 -943.0000000000 -943.0000000000 -943.0000000000 -943.0000000000
25 -904.0000000000 -904.0000000000 -904.0000000000 -904.0000000000
33 -875.0000000000 -875.0000000000 -875.0000000000 -875.0000000000
35 -836.0000000000 -836.0000000000 -836.0000000000 -836.0000000000
40 -817.0000000000 -817.0000000000 -817.0000000000 -817.0000000000
44 -778.0000000000 -778.0000000000 -778.0000000000 -778.0000000000
49 -739.0000000000 -739.0000000000 -739.0000000000 -739.0000000000
51 -710.0000000000 -710.0000000000 -710.0000000000 -710.0000000000
55 -671.0000000000 -671.0000000000 -671.0000000000 -671.0000000000
58 -632.0000000000 -632.0000000000 -632.0000000000 -632.0000000000
65 -593.0000000000 -593.0000000000 -593.0000000000 -593.0000000000
77 -554.0000000000 -554.0000000000 -554.0000000000 -554.0000000000
87 -525.0000000000 -525.0000000000 -525.0000000000 -525.0000000000
92 -486.0000000000 -486.0000000000 -486.0000000000 -486.0000000000
93 -457.0000000000 -457.0000000000 -457.0000000000 -457.0000000000
98 -428.0000000000 -428.0000000000 -428.0000000000 -428.0000000000
105 -389.0000000000 -389.0000000000 -389.0000000000 -389.0000000000
108 -350.0000000000 -350.0000000000 -350.0000000000 -350.0000000000
113 -321.0000000000 -321.0000000000 -321.0000000000 -321.0000000000
128 -282.0000000000 -282.0000000000 -282.0000000000 -282.0000000000
130 -263.0000000000 -263.0000000000 -263.0000000000 -263.0000000000
135 -234.0000000000 -234.0000000000 -234.0000000000 -234.0000000000
136 -195.0000000000 -195.0000000000 -195.0000000000 -195.0000000000
155 -156.0000000000 -156.0000000000 -156.0000000000 -156.0000000000
167 -127.0000000000 -127.0000000000 -127.0000000000 -127.0000000000
174 -108.0000000000 -108.0000000000 -108.0000000000 -108.0000000000
175 -79.0000000000 -79.0000000000 -79.0000000000 -79.0000000000
177 -60.0000000000 -60.0000000000 -60.0000000000 -60.0000000000
217 -51.0000000000 -51.0000000000 -51.0000000000 -51.0000000000
231 -32.0000000000 -32.0000000000 -32.0000000000 -32.0000000000
239 -31.0000000000 -31.0000000000 -31.0000000000 -31.0000000000
240 -22.0000000000 -22.0000000000 -22.0000000000 -22.0000000000
255 -13.0000000000 -13.0000000000 -13.0000000000 -13.0000000000
257 6.0000000000 6.0000000000 6.0000000000 6.0000000000
269 7.0000000000 7.0000000000 7.0000000000 7.0000000000
280 8.0000000000 8.0000000000 8.0000000000 8.0000000000
374 9.0000000000 9.0000000000 9.0000000000 9.0000000000
100001 -20.0000000000 9.0000000000 -20.0000000000 9.0000000000
"function evaluation" "current f(x)" "best-so-far f(x)" "current af(x)+b" "best af(x)+b"
1 -1371.0000000000 -1371.0000000000 -1371.0000000000 -1371.0000000000
6 -1342.0000000000 -1342.0000000000 -1342.0000000000 -1342.0000000000
9 -1313.0000000000 -1313.0000000000 -1313.0000000000 -1313.0000000000
10 -1284.0000000000 -1284.0000000000 -1284.0000000000 -1284.0000000000
12 -1245.0000000000 -1245.0000000000 -1245.0000000000 -1245.0000000000
13 -1206.0000000000 -1206.0000000000 -1206.0000000000 -1206.0000000000
14 -1167.0000000000 -1167.0000000000 -1167.0000000000 -1167.0000000000
15 -1138.0000000000 -1138.0000000000 -1138.0000000000 -1138.0000000000
17 -1099.0000000000 -1099.0000000000 -1099.0000000000 -1099.0000000000
19 -1060.0000000000 -1060.0000000000 -1060.0000000000 -1060.0000000000
22 -1031.0000000000 -1031.0000000000 -1031.0000000000 -1031.0000000000
24 -992.0000000000 -992.0000000000 -992.0000000000 -992.0000000000
28 -963.0000000000 -963.0000000000 -963.0000000000 -963.0000000000
29 -924.0000000000 -924.0000000000 -924.0000000000 -924.0000000000
34 -885.0000000000 -885.0000000000 -885.0000000000 -885.0000000000
36 -846.0000000000 -846.0000000000 -846.0000000000 -846.0000000000
38 -817.0000000000 -817.0000000000 -817.0000000000 -817.0000000000
47 -778.0000000000 -778.0000000000 -778.0000000000 -778.0000000000
48 -739.0000000000 -739.0000000000 -739.0000000000 -739.0000000000
52 -700.0000000000 -700.0000000000 -700.0000000000 -700.0000000000
63 -671.0000000000 -671.0000000000 -671.0000000000 -671.0000000000
67 -632.0000000000 -632.0000000000 -632.0000000000 -632.0000000000
68 -603.0000000000 -603.0000000000 -603.0000000000 -603.0000000000
85 -574.0000000000 -574.0000000000 -574.0000000000 -574.0000000000
87 -535.0000000000 -535.0000000000 -535.0000000000 -535.0000000000
92 -496.0000000000 -496.0000000000 -496.0000000000 -496.0000000000
93 -457.0000000000 -457.0000000000 -457.0000000000 -457.0000000000
98 -428.0000000000 -428.0000000000 -428.0000000000 -428.0000000000
101 -399.0000000000 -399.0000000000 -399.0000000000 -399.0000000000
102 -370.0000000000 -370.0000000000 -370.0000000000 -370.0000000000
103 -351.0000000000 -351.0000000000 -351.0000000000 -351.0000000000
105 -322.0000000000 -322.0000000000 -322.0000000000 -322.0000000000
116 -293.0000000000 -293.0000000000 -293.0000000000 -293.0000000000
141 -254.0000000000 -254.0000000000 -254.0000000000 -254.0000000000
146 -235.0000000000 -235.0000000000 -235.0000000000 -235.0000000000
160 -206.0000000000 -206.0000000000 -206.0000000000 -206.0000000000
162 -187.0000000000 -187.0000000000 -187.0000000000 -187.0000000000
167 -158.0000000000 -158.0000000000 -158.0000000000 -158.0000000000
181 -129.0000000000 -129.0000000000 -129.0000000000 -129.0000000000
185 -110.0000000000 -110.0000000000 -110.0000000000 -110.0000000000
199 -91.0000000000 -91.0000000000 -91.0000000000 -91.0000000000
212 -82.0000000000 -82.0000000000 -82.0000000000 -82.0000000000
220 -81.0000000000 -81.0000000000 -81.0000000000 -81.0000000000
223 -52.0000000000 -52.0000000000 -52.0000000000 -52.0000000000
231 -51.0000000000 -51.0000000000 -51.0000000000 -51.0000000000
247 -42.0000000000 -42.0000000000 -42.0000000000 -42.0000000000
250 -23.0000000000 -23.0000000000 -23.0000000000 -23.0000000000
260 -14.0000000000 -14.0000000000 -14.0000000000 -14.0000000000
261 -13.0000000000 -13.0000000000 -13.0000000000 -13.0000000000
262 -12.0000000000 -12.0000000000 -12.0000000000 -12.0000000000
269 7.0000000000 7.0000000000 7.0000000000 7.0000000000
334 8.0000000000 8.0000000000 8.0000000000 8.0000000000
100001 -31.0000000000 8.0000000000 -31.0000000000 8.0000000000
"function evaluation" "current f(x)" "best-so-far f(x)" "current af(x)+b" "best af(x)+b"
1 -1566.0000000000 -1566.0000000000 -1566.0000000000 -1566.0000000000
2 -1527.0000000000 -1527.0000000000 -1527.0000000000 -1527.0000000000
8 -1488.0000000000 -1488.0000000000 -1488.0000000000 -1488.0000000000
9 -1449.0000000000 -1449.0000000000 -1449.0000000000 -1449.0000000000
10 -1410.0000000000 -1410.0000000000 -1410.0000000000 -1410.0000000000
17 -1381.0000000000 -1381.0000000000 -1381.0000000000 -1381.0000000000
18 -1352.0000000000 -1352.0000000000 -1352.0000000000 -1352.0000000000
19 -1313.0000000000 -1313.0000000000 -1313.0000000000 -1313.0000000000
21 -1274.0000000000 -1274.0000000000 -1274.0000000000 -1274.0000000000
22 -1235.0000000000 -1235.0000000000 -1235.0000000000 -1235.0000000000
23 -1196.0000000000 -1196.0000000000 -1196.0000000000 -1196.0000000000
24 -1157.0000000000 -1157.0000000000 -1157.0000000000 -1157.0000000000
25 -1118.0000000000 -1118.0000000000 -1118.0000000000 -1118.0000000000
26 -1079.0000000000 -1079.0000000000 -1079.0000000000 -1079.0000000000
30 -1050.0000000000 -1050.0000000000 -1050.0000000000 -1050.0000000000
32 -1021.0000000000 -1021.0000000000 -1021.0000000000 -1021.0000000000
44 -982.0000000000 -982.0000000000 -982.0000000000 -982.0000000000
45 -953.0000000000 -953.0000000000 -953.0000000000 -953.0000000000
46 -914.0000000000 -914.0000000000 -914.0000000000 -914.0000000000
47 -875.0000000000 -875.0000000000 -875.0000000000 -875.0000000000
50 -836.0000000000 -836.0000000000 -836.0000000000 -836.0000000000
51 -797.0000000000 -797.0000000000 -797.0000000000 -797.0000000000
52 -758.0000000000 -758.0000000000 -758.0000000000 -758.0000000000
54 -719.0000000000 -719.0000000000 -719.0000000000 -719.0000000000
56 -680.0000000000 -680.0000000000 -680.0000000000 -680.0000000000
57 -651.0000000000 -651.0000000000 -651.0000000000 -651.0000000000
63 -622.0000000000 -622.0000000000 -622.0000000000 -622.0000000000
66 -593.0000000000 -593.0000000000 -593.0000000000 -593.0000000000
77 -564.0000000000 -564.0000000000 -564.0000000000 -564.0000000000
78 -535.0000000000 -535.0000000000 -535.0000000000 -535.0000000000
81 -516.0000000000 -516.0000000000 -516.0000000000 -516.0000000000
83 -477.0000000000 -477.0000000000 -477.0000000000 -477.0000000000
87 -438.0000000000 -438.0000000000 -438.0000000000 -438.0000000000
89 -399.0000000000 -399.0000000000 -399.0000000000 -399.0000000000
92 -360.0000000000 -360.0000000000 -360.0000000000 -360.0000000000
93 -331.0000000000 -331.0000000000 -331.0000000000 -331.0000000000
99 -312.0000000000 -312.0000000000 -312.0000000000 -312.0000000000
109 -293.0000000000 -293.0000000000 -293.0000000000 -293.0000000000
110 -254.0000000000 -254.0000000000 -254.0000000000 -254.0000000000
121 -235.0000000000 -235.0000000000 -235.0000000000 -235.0000000000
131 -206.0000000000 -206.0000000000 -206.0000000000 -206.0000000000
134 -177.0000000000 -177.0000000000 -177.0000000000 -177.0000000000
138 -158.0000000000 -158.0000000000 -158.0000000000 -158.0000000000
141 -139.0000000000 -139.0000000000 -139.0000000000 -139.0000000000
142 -120.0000000000 -120.0000000000 -120.0000000000 -120.0000000000
159 -119.0000000000 -119.0000000000 -119.0000000000 -119.0000000000
167 -100.0000000000 -100.0000000000 -100.0000000000 -100.0000000000
169 -71.0000000000 -71.0000000000 -71.0000000000 -71.0000000000
190 -42.0000000000 -42.0000000000 -42.0000000000 -42.0000000000
198 -41.0000000000 -41.0000000000 -41.0000000000 -41.0000000000
212 -32.0000000000 -32.0000000000 -32.0000000000 -32.0000000000
215 -23.0000000000 -23.0000000000 -23.0000000000 -23.0000000000
286 -22.0000000000 -22.0000000000 -22.0000000000 -22.0000000000
307 -13.0000000000 -13.0000000000 -13.0000000000 -13.0000000000
308 -12.0000000000 -12.0000000000 -12.0000000000 -12.0000000000
326 -3.0000000000 -3.0000000000 -3.0000000000 -3.0000000000
334 6.0000000000 6.0000000000 6.0000000000 6.0000000000
348 7.0000000000 7.0000000000 7.0000000000 7.0000000000
465 8.0000000000 8.0000000000 8.0000000000 8.0000000000
512 9.0000000000 9.0000000000 9.0000000000 9.0000000000
100001 -20.0000000000 9.0000000000 -20.0000000000 9.0000000000
"function evaluation" "current f(x)" "best-so-far f(x)" "current af(x)+b" "best af(x)+b"
1 -1498.0000000000 -1498.0000000000 -1498.0000000000 -1498.0000000000
2 -1459.0000000000 -1459.0000000000 -1459.0000000000 -1459.0000000000
4 -1420.0000000000 -1420.0000000000 -1420.0000000000 -1420.0000000000
5 -1381.0000000000 -1381.0000000000 -1381.0000000000 -1381.0000000000
8 -1352.0000000000 -1352.0000000000 -1352.0000000000 -1352.0000000000
9 -1313.0000000000 -1313.0000000000 -1313.0000000000 -1313.0000000000
10 -1274.0000000000 -1274.0000000000 -1274.0000000000 -1274.0000000000
11 -1235.0000000000 -1235.0000000000 -1235.0000000000 -1235.0000000000
12 -1196.0000000000 -1196.0000000000 -1196.0000000000 -1196.0000000000
17 -1157.0000000000 -1157.0000000000 -1157.0000000000 -1157.0000000000
19 -1118.0000000000 -1118.0000000000 -1118.0000000000 -1118.0000000000
20 -1079.0000000000 -1079.0000000000 -1079.0000000000 -1079.0000000000
